#TimeHarp 260  Histogram Data			08/13/25 15:09:45
#channels per curve
32768
#display curve no.
0	
#memory block no.
0	
#ns/bin
1.0000	
#counts
0	
0	
0	
1	
0	
1	
1	
0	
0	
1	
0	
0	
0	
1	
0	
0	
1	
0	
0	
0	
0	
0	
1	
0	
0	
0	
0	
0	
0	
0	
0	
0	
0	
0	
0	
1	
0	
0	
0	
0	
0	
0	
0	
0	
0	
1	
0	
0	
1	
1	
1	
0	
0	
0	
0	
0	
0	
0	
0	
0	
0	
1	
0	
0	
0	
0	
0	
0	
1	
0	
0	
2	
0	
1	
0	
0	
0	
0	
0	
1	
0	
0	
1	
0	
0	
0	
0	
0	
0	
0	
0	
0	
0	
0	
0	
0	
0	
0	
0	
0	
0	
0	
0	
0	
1	
0	
0	
0	
0	
0	
0	
0	
0	
0	
0	
0	
0	
0	
0	
0	
0	
0	
0	
1	
0	
0	
0	
0	
1	
0	
0	
0	
0	
0	
0	
0	
0	
0	
0	
1	
0	
0	
0	
0	
1	
1	
1	
0	
0	
0	
0	
0	
0	
0	
2	
0	
0	
0	
2	
0	
1	
0	
0	
0	
0	
0	
0	
1	
0	
0	
0	
0	
1	
0	
0	
0	
0	
2	
0	
0	
0	
1	
0	
0	
0	
0	
0	
0	
0	
0	
0	
1	
0	
0	
0	
0	
0	
1	
0	
0	
0	
0	
0	
0	
0	
0	
0	
0	
0	
0	
0	
0	
0	
0	
0	
0	
0	
0	
0	
0	
1	
1	
1	
0	
0	
0	
0	
1	
0	
0	
0	
1	
0	
0	
0	
1	
1	
0	
0	
0	
1	
0	
0	
0	
0	
0	
0	
0	
0	
0	
0	
2	
0	
0	
0	
0	
0	
1	
0	
0	
0	
0	
6	
216	
501	
565	
525	
522	
504	
551	
515	
481	
471	
443	
461	
440	
398	
414	
376	
383	
398	
383	
359	
341	
375	
344	
341	
319	
314	
347	
319	
279	
307	
301	
284	
293	
281	
277	
296	
296	
260	
269	
262	
228	
257	
243	
231	
223	
244	
210	
238	
242	
205	
205	
213	
223	
213	
203	
205	
212	
211	
204	
173	
185	
183	
170	
185	
158	
174	
159	
167	
167	
151	
166	
166	
169	
166	
139	
152	
170	
143	
131	
140	
149	
129	
145	
137	
123	
132	
141	
145	
129	
134	
144	
112	
127	
123	
117	
125	
114	
128	
101	
111	
104	
120	
108	
91	
134	
101	
106	
95	
126	
102	
109	
111	
101	
77	
113	
97	
100	
104	
103	
103	
89	
78	
102	
89	
87	
88	
87	
78	
80	
94	
93	
60	
87	
75	
94	
83	
85	
81	
80	
74	
61	
71	
80	
69	
79	
86	
66	
74	
91	
64	
70	
79	
67	
64	
65	
61	
60	
60	
60	
63	
60	
68	
50	
70	
75	
68	
70	
54	
64	
57	
69	
50	
66	
49	
70	
37	
57	
54	
58	
55	
44	
47	
46	
53	
51	
43	
63	
58	
49	
45	
55	
51	
53	
53	
45	
55	
44	
56	
55	
47	
57	
60	
43	
47	
42	
45	
45	
43	
49	
36	
53	
56	
46	
48	
41	
40	
44	
48	
47	
48	
47	
42	
54	
51	
41	
57	
43	
32	
40	
29	
46	
39	
39	
42	
45	
37	
41	
27	
45	
31	
36	
31	
51	
41	
37	
37	
42	
40	
42	
42	
33	
37	
39	
41	
33	
29	
36	
35	
24	
31	
31	
32	
35	
39	
35	
29	
40	
41	
30	
36	
32	
25	
29	
24	
30	
32	
38	
22	
25	
35	
37	
27	
34	
27	
30	
32	
26	
34	
29	
28	
34	
29	
23	
25	
30	
14	
27	
26	
32	
33	
24	
24	
26	
31	
20	
30	
31	
25	
30	
27	
32	
26	
28	
20	
30	
23	
27	
18	
24	
38	
30	
21	
30	
23	
25	
24	
27	
20	
25	
30	
19	
22	
17	
18	
31	
27	
21	
18	
25	
24	
21	
27	
23	
22	
20	
28	
21	
23	
22	
17	
24	
18	
28	
13	
18	
25	
27	
22	
21	
18	
21	
18	
20	
14	
12	
13	
20	
16	
15	
17	
21	
18	
20	
24	
29	
19	
17	
21	
16	
22	
25	
15	
17	
24	
18	
22	
24	
20	
22	
17	
17	
14	
15	
19	
15	
9	
15	
19	
23	
14	
17	
18	
14	
25	
9	
16	
15	
12	
14	
21	
15	
22	
21	
16	
17	
21	
17	
20	
13	
14	
21	
11	
17	
21	
19	
16	
16	
19	
15	
17	
15	
17	
14	
20	
26	
15	
10	
15	
19	
20	
9	
19	
11	
17	
19	
22	
17	
12	
20	
19	
21	
14	
11	
19	
19	
21	
13	
14	
17	
17	
6	
14	
18	
15	
12	
20	
17	
6	
17	
11	
10	
12	
14	
23	
11	
16	
11	
14	
10	
15	
19	
16	
19	
16	
9	
17	
9	
9	
18	
7	
19	
8	
10	
8	
13	
14	
12	
17	
10	
10	
16	
7	
12	
13	
13	
10	
17	
9	
10	
15	
13	
10	
17	
12	
8	
18	
13	
12	
16	
17	
13	
12	
17	
13	
10	
14	
7	
10	
11	
13	
13	
13	
12	
16	
16	
9	
17	
11	
9	
6	
10	
9	
12	
13	
20	
13	
11	
9	
11	
13	
14	
7	
10	
10	
14	
8	
10	
13	
12	
13	
20	
8	
11	
14	
11	
11	
14	
13	
8	
11	
11	
9	
14	
9	
11	
13	
10	
9	
14	
7	
8	
10	
12	
13	
13	
13	
10	
14	
13	
12	
10	
5	
10	
11	
15	
9	
9	
4	
8	
10	
10	
5	
12	
6	
6	
7	
10	
15	
7	
10	
9	
5	
11	
8	
6	
14	
10	
10	
8	
8	
8	
9	
9	
9	
17	
7	
13	
5	
9	
9	
12	
11	
13	
6	
7	
9	
13	
13	
2	
11	
9	
13	
9	
10	
14	
10	
4	
7	
9	
8	
12	
4	
9	
12	
9	
8	
8	
11	
12	
5	
8	
6	
18	
6	
11	
15	
5	
8	
10	
10	
11	
9	
8	
11	
10	
7	
8	
11	
10	
11	
12	
5	
4	
4	
12	
5	
7	
7	
9	
10	
13	
6	
6	
11	
11	
6	
10	
11	
8	
10	
7	
4	
8	
4	
4	
8	
3	
7	
3	
6	
3	
10	
4	
5	
11	
2	
9	
6	
8	
10	
7	
9	
12	
4	
9	
8	
8	
8	
11	
3	
5	
7	
8	
5	
6	
8	
8	
7	
9	
7	
7	
4	
5	
6	
10	
5	
6	
11	
11	
11	
5	
10	
4	
8	
5	
5	
7	
3	
9	
5	
7	
9	
1	
5	
6	
6	
11	
7	
5	
12	
6	
2	
9	
8	
12	
7	
5	
11	
7	
4	
8	
4	
10	
4	
6	
3	
8	
7	
2	
6	
11	
7	
9	
8	
9	
5	
5	
6	
6	
8	
10	
5	
13	
5	
7	
5	
9	
8	
11	
9	
4	
4	
7	
3	
4	
4	
6	
10	
4	
9	
7	
7	
4	
5	
3	
9	
8	
5	
3	
9	
3	
9	
11	
6	
7	
7	
5	
4	
3	
6	
5	
5	
4	
6	
7	
8	
4	
5	
12	
4	
8	
6	
7	
3	
8	
6	
5	
9	
4	
3	
9	
5	
8	
7	
3	
8	
3	
7	
6	
8	
10	
3	
6	
5	
12	
6	
8	
4	
5	
8	
5	
6	
8	
8	
7	
5	
4	
3	
4	
3	
3	
6	
3	
5	
3	
9	
10	
10	
7	
6	
5	
6	
5	
6	
9	
10	
4	
7	
7	
7	
4	
6	
4	
6	
4	
2	
5	
8	
8	
10	
8	
12	
5	
6	
5	
4	
5	
6	
6	
5	
3	
4	
6	
4	
4	
4	
7	
1	
7	
7	
12	
3	
2	
5	
4	
4	
5	
5	
7	
4	
3	
4	
2	
8	
4	
7	
4	
3	
5	
5	
4	
3	
7	
4	
6	
6	
6	
8	
7	
4	
4	
3	
6	
5	
8	
6	
6	
6	
7	
3	
6	
2	
5	
6	
7	
4	
6	
5	
7	
4	
2	
5	
8	
6	
3	
2	
3	
3	
3	
4	
4	
5	
5	
6	
4	
4	
3	
3	
6	
5	
5	
5	
2	
6	
3	
4	
2	
4	
2	
5	
3	
8	
3	
3	
3	
5	
1	
5	
3	
3	
3	
8	
3	
5	
2	
1	
4	
3	
4	
5	
5	
7	
6	
8	
7	
7	
10	
2	
1	
6	
2	
4	
6	
5	
2	
5	
5	
6	
7	
2	
5	
3	
5	
6	
9	
3	
1	
3	
6	
2	
5	
4	
4	
8	
1	
0	
3	
5	
3	
6	
5	
3	
5	
5	
2	
6	
3	
4	
7	
3	
3	
4	
5	
6	
1	
3	
2	
5	
4	
1	
0	
1	
4	
3	
6	
5	
3	
7	
6	
5	
2	
1	
6	
1	
4	
2	
6	
6	
3	
9	
3	
2	
3	
8	
4	
4	
3	
3	
8	
3	
5	
3	
2	
1	
4	
2	
8	
5	
5	
4	
3	
4	
1	
3	
4	
1	
3	
3	
3	
6	
3	
6	
3	
5	
5	
4	
5	
3	
2	
8	
5	
3	
2	
3	
3	
2	
5	
1	
2	
5	
5	
6	
6	
6	
6	
4	
5	
4	
5	
2	
6	
5	
10	
4	
4	
0	
3	
4	
6	
5	
3	
6	
6	
3	
1	
3	
4	
3	
3	
4	
3	
5	
6	
2	
1	
1	
4	
2	
0	
3	
2	
4	
2	
4	
2	
2	
3	
2	
1	
6	
3	
5	
6	
6	
4	
4	
8	
2	
3	
2	
1	
2	
3	
5	
5	
3	
2	
0	
3	
1	
4	
4	
3	
4	
5	
1	
2	
3	
1	
2	
1	
3	
6	
3	
4	
4	
1	
1	
5	
2	
4	
6	
4	
3	
3	
3	
3	
5	
3	
3	
2	
0	
3	
3	
3	
6	
5	
3	
5	
7	
3	
4	
5	
4	
0	
1	
3	
3	
3	
1	
2	
4	
3	
2	
1	
3	
1	
2	
3	
3	
2	
8	
5	
2	
3	
5	
3	
3	
2	
1	
2	
1	
1	
4	
0	
4	
2	
2	
1	
4	
3	
2	
2	
3	
5	
3	
4	
5	
5	
6	
0	
7	
1	
1	
3	
2	
4	
2	
2	
5	
3	
6	
2	
0	
4	
2	
4	
3	
2	
7	
2	
2	
6	
1	
2	
6	
5	
2	
7	
0	
4	
3	
2	
1	
2	
1	
5	
5	
1	
1	
4	
5	
4	
3	
4	
3	
0	
3	
4	
3	
3	
1	
2	
1	
2	
4	
1	
5	
0	
5	
5	
6	
2	
1	
2	
3	
1	
6	
3	
6	
4	
2	
1	
3	
2	
4	
2	
0	
0	
3	
3	
6	
2	
3	
3	
4	
2	
1	
2	
2	
4	
0	
3	
5	
4	
1	
3	
4	
4	
3	
6	
1	
6	
1	
6	
4	
1	
2	
0	
4	
1	
3	
1	
1	
1	
0	
5	
2	
2	
1	
1	
5	
4	
3	
4	
4	
5	
3	
1	
4	
2	
1	
2	
0	
1	
1	
2	
1	
2	
3	
1	
2	
3	
4	
4	
4	
5	
3	
1	
1	
4	
1	
0	
2	
4	
1	
2	
1	
4	
2	
3	
3	
1	
3	
2	
5	
1	
5	
2	
5	
2	
6	
2	
0	
2	
0	
4	
5	
1	
2	
2	
0	
4	
1	
1	
0	
5	
0	
1	
3	
1	
2	
0	
4	
2	
2	
1	
2	
5	
3	
4	
4	
2	
1	
4	
3	
3	
2	
3	
1	
2	
0	
2	
3	
3	
1	
1	
3	
1	
2	
1	
0	
4	
2	
5	
3	
0	
2	
2	
0	
5	
2	
3	
5	
3	
3	
5	
1	
1	
3	
2	
1	
0	
5	
2	
2	
2	
4	
4	
1	
4	
2	
3	
1	
4	
5	
0	
6	
2	
4	
5	
2	
1	
3	
0	
1	
3	
3	
2	
4	
6	
1	
1	
3	
1	
3	
1	
0	
1	
2	
4	
3	
2	
5	
4	
1	
2	
2	
3	
2	
4	
0	
2	
1	
3	
4	
2	
4	
3	
1	
2	
2	
3	
4	
2	
2	
0	
0	
3	
2	
5	
4	
5	
3	
2	
3	
1	
1	
3	
3	
1	
1	
4	
1	
2	
3	
1	
5	
0	
0	
2	
1	
3	
2	
3	
2	
2	
4	
1	
2	
6	
1	
0	
2	
3	
1	
4	
0	
2	
3	
2	
4	
4	
0	
1	
0	
0	
1	
1	
3	
2	
2	
1	
1	
9	
2	
4	
1	
1	
1	
3	
6	
0	
1	
4	
4	
3	
3	
1	
2	
0	
1	
3	
3	
3	
3	
0	
2	
1	
0	
2	
1	
2	
1	
1	
1	
1	
6	
1	
2	
1	
2	
2	
3	
2	
2	
0	
6	
2	
2	
5	
1	
2	
2	
5	
1	
2	
0	
4	
2	
3	
2	
1	
1	
1	
2	
1	
0	
2	
1	
1	
2	
1	
2	
0	
1	
3	
0	
1	
2	
3	
4	
0	
3	
2	
0	
2	
2	
2	
0	
0	
4	
0	
1	
0	
1	
4	
1	
1	
1	
1	
3	
1	
0	
1	
1	
2	
1	
2	
3	
2	
1	
0	
3	
1	
1	
2	
2	
4	
3	
0	
3	
3	
2	
0	
0	
0	
1	
2	
2	
2	
6	
2	
2	
2	
1	
3	
2	
1	
1	
2	
1	
1	
2	
3	
1	
1	
3	
0	
3	
3	
1	
3	
3	
0	
4	
2	
2	
4	
1	
0	
3	
5	
0	
1	
0	
0	
1	
1	
3	
1	
1	
0	
2	
3	
0	
3	
0	
2	
1	
2	
2	
0	
2	
3	
2	
3	
0	
3	
1	
1	
3	
1	
2	
0	
2	
1	
2	
3	
1	
3	
1	
1	
3	
1	
1	
2	
5	
0	
1	
2	
0	
2	
1	
2	
3	
3	
1	
3	
1	
0	
1	
0	
0	
3	
0	
4	
2	
1	
2	
0	
2	
1	
2	
4	
2	
4	
3	
2	
1	
2	
0	
1	
2	
3	
0	
0	
0	
4	
2	
2	
0	
1	
3	
4	
1	
3	
3	
1	
0	
2	
4	
0	
1	
2	
1	
3	
1	
3	
1	
1	
5	
2	
0	
0	
1	
1	
1	
1	
4	
2	
1	
1	
1	
0	
1	
1	
0	
0	
2	
2	
0	
1	
2	
0	
1	
0	
1	
1	
1	
3	
0	
1	
1	
4	
5	
1	
2	
0	
2	
2	
3	
3	
1	
0	
2	
2	
2	
2	
3	
1	
0	
3	
2	
1	
2	
3	
1	
0	
3	
1	
1	
3	
4	
1	
1	
1	
1	
1	
2	
1	
4	
0	
5	
0	
0	
1	
1	
3	
2	
2	
2	
1	
1	
4	
0	
3	
2	
1	
2	
2	
1	
2	
2	
4	
1	
1	
2	
0	
2	
2	
3	
3	
2	
5	
1	
1	
1	
1	
2	
3	
0	
0	
4	
1	
4	
2	
0	
3	
1	
3	
0	
5	
5	
1	
1	
3	
1	
6	
1	
1	
2	
1	
3	
2	
0	
1	
1	
0	
1	
0	
0	
2	
0	
1	
0	
1	
1	
1	
0	
0	
3	
1	
1	
0	
1	
1	
2	
3	
0	
0	
2	
1	
1	
1	
1	
2	
0	
4	
1	
4	
2	
1	
3	
1	
2	
2	
2	
3	
0	
2	
4	
3	
1	
3	
3	
2	
0	
0	
3	
2	
1	
0	
2	
0	
0	
1	
1	
0	
3	
1	
2	
1	
1	
2	
1	
1	
0	
2	
0	
3	
2	
0	
2	
0	
3	
3	
3	
1	
3	
3	
2	
1	
1	
0	
1	
1	
2	
1	
3	
3	
2	
1	
1	
2	
2	
2	
1	
2	
0	
2	
0	
2	
3	
4	
1	
5	
2	
0	
1	
0	
2	
2	
1	
2	
0	
1	
0	
1	
1	
4	
2	
2	
0	
1	
3	
2	
1	
0	
1	
1	
1	
0	
2	
2	
0	
0	
1	
1	
1	
1	
3	
1	
2	
1	
1	
2	
1	
1	
2	
0	
0	
2	
0	
1	
3	
0	
1	
2	
1	
0	
2	
1	
1	
3	
1	
1	
1	
2	
2	
1	
2	
1	
2	
0	
2	
1	
0	
1	
2	
2	
3	
1	
2	
2	
2	
1	
1	
1	
1	
1	
3	
3	
0	
1	
0	
4	
3	
1	
2	
1	
1	
0	
1	
0	
1	
0	
4	
2	
1	
1	
2	
3	
0	
0	
3	
3	
1	
0	
2	
1	
0	
0	
0	
3	
1	
0	
3	
2	
3	
3	
2	
0	
1	
2	
0	
0	
4	
0	
1	
3	
0	
1	
1	
0	
1	
1	
1	
1	
2	
0	
0	
1	
0	
0	
1	
1	
1	
3	
2	
2	
0	
0	
1	
4	
2	
3	
1	
3	
2	
2	
1	
0	
2	
3	
0	
0	
2	
1	
2	
1	
1	
1	
2	
3	
1	
0	
0	
1	
2	
2	
3	
3	
1	
0	
1	
0	
1	
2	
1	
1	
2	
1	
3	
0	
0	
0	
0	
4	
1	
4	
1	
2	
1	
1	
1	
0	
2	
1	
0	
0	
2	
2	
1	
2	
1	
0	
0	
1	
1	
1	
1	
0	
3	
1	
0	
0	
0	
1	
2	
4	
1	
2	
0	
0	
0	
3	
2	
1	
3	
0	
2	
1	
0	
3	
1	
0	
2	
2	
3	
2	
2	
1	
1	
0	
5	
4	
0	
0	
0	
1	
0	
1	
1	
2	
1	
0	
0	
3	
1	
2	
0	
1	
2	
2	
0	
0	
2	
0	
0	
2	
3	
1	
0	
1	
1	
2	
1	
1	
1	
3	
1	
0	
1	
2	
1	
0	
2	
0	
0	
0	
0	
3	
1	
2	
1	
1	
0	
1	
1	
0	
1	
3	
1	
3	
1	
1	
3	
1	
1	
3	
1	
0	
0	
2	
2	
1	
1	
2	
1	
2	
1	
2	
1	
2	
0	
0	
1	
3	
4	
1	
2	
1	
1	
0	
3	
0	
1	
2	
4	
2	
0	
2	
0	
3	
1	
2	
1	
1	
2	
1	
1	
1	
0	
1	
0	
0	
0	
2	
1	
0	
0	
1	
1	
0	
2	
0	
0	
3	
1	
0	
0	
1	
0	
3	
1	
2	
1	
1	
1	
3	
2	
1	
1	
3	
0	
1	
3	
0	
2	
1	
4	
0	
0	
1	
1	
0	
0	
1	
4	
0	
1	
1	
1	
4	
3	
2	
0	
0	
0	
0	
2	
0	
1	
0	
0	
1	
2	
1	
0	
2	
3	
2	
1	
2	
0	
1	
0	
1	
0	
1	
0	
2	
4	
2	
2	
1	
2	
0	
0	
2	
1	
4	
0	
0	
0	
1	
1	
0	
1	
5	
0	
1	
0	
1	
3	
1	
4	
1	
1	
1	
1	
1	
3	
1	
3	
1	
1	
1	
1	
2	
0	
2	
0	
3	
1	
0	
0	
1	
0	
2	
2	
1	
0	
2	
2	
2	
2	
1	
0	
2	
1	
1	
2	
2	
3	
0	
1	
1	
0	
0	
1	
0	
0	
1	
1	
1	
0	
0	
1	
1	
2	
1	
1	
2	
0	
0	
1	
2	
0	
1	
2	
1	
2	
3	
1	
1	
0	
1	
1	
2	
2	
0	
0	
0	
1	
0	
1	
0	
0	
1	
1	
1	
1	
2	
3	
0	
1	
1	
1	
1	
2	
2	
2	
1	
1	
1	
2	
1	
0	
1	
1	
1	
0	
2	
0	
1	
3	
1	
1	
1	
1	
1	
2	
0	
1	
0	
0	
1	
0	
0	
0	
1	
0	
2	
1	
0	
2	
4	
1	
1	
1	
2	
0	
1	
0	
0	
1	
2	
1	
1	
1	
0	
2	
1	
3	
1	
0	
2	
2	
2	
0	
2	
1	
0	
0	
1	
1	
1	
1	
2	
0	
0	
1	
2	
0	
1	
1	
0	
3	
0	
0	
1	
0	
0	
1	
2	
0	
2	
1	
0	
1	
1	
0	
1	
2	
0	
0	
1	
0	
1	
1	
0	
0	
2	
0	
1	
1	
1	
2	
0	
2	
0	
4	
0	
4	
1	
1	
2	
3	
0	
3	
1	
1	
0	
1	
1	
2	
0	
3	
0	
1	
1	
1	
3	
2	
2	
2	
2	
0	
1	
1	
0	
2	
1	
0	
1	
1	
1	
1	
0	
1	
0	
1	
1	
2	
1	
1	
1	
1	
2	
1	
0	
1	
3	
1	
0	
0	
0	
0	
1	
2	
2	
1	
1	
0	
1	
1	
0	
0	
1	
1	
1	
3	
2	
5	
2	
0	
2	
0	
1	
0	
1	
0	
1	
0	
2	
0	
2	
0	
0	
1	
1	
1	
0	
0	
2	
2	
2	
1	
1	
2	
0	
2	
1	
1	
2	
0	
0	
1	
0	
1	
0	
2	
1	
1	
0	
0	
1	
0	
2	
2	
0	
1	
0	
0	
0	
1	
1	
0	
1	
0	
1	
1	
4	
0	
2	
3	
1	
1	
2	
1	
3	
2	
1	
0	
2	
0	
0	
1	
1	
1	
0	
0	
2	
1	
2	
2	
1	
0	
0	
0	
1	
1	
3	
2	
0	
0	
1	
1	
2	
0	
4	
0	
3	
1	
2	
1	
1	
2	
0	
2	
1	
1	
0	
0	
2	
3	
1	
0	
0	
1	
1	
1	
0	
2	
1	
0	
0	
0	
1	
0	
0	
2	
1	
1	
0	
0	
1	
2	
0	
4	
0	
0	
0	
2	
1	
0	
1	
3	
1	
1	
0	
0	
3	
2	
1	
0	
2	
2	
2	
1	
0	
0	
0	
0	
1	
0	
0	
1	
0	
1	
3	
1	
2	
1	
1	
1	
0	
1	
0	
3	
1	
1	
0	
2	
1	
1	
1	
0	
3	
2	
2	
0	
3	
1	
4	
0	
1	
1	
0	
2	
1	
1	
0	
1	
1	
1	
1	
0	
0	
1	
0	
0	
0	
3	
1	
2	
1	
1	
1	
0	
0	
3	
1	
1	
0	
2	
2	
0	
2	
2	
3	
1	
1	
0	
0	
0	
0	
1	
0	
1	
4	
0	
2	
3	
2	
1	
0	
1	
1	
1	
1	
1	
1	
2	
2	
1	
1	
1	
0	
1	
0	
2	
1	
1	
0	
2	
0	
1	
1	
2	
0	
1	
1	
0	
1	
1	
0	
0	
3	
3	
1	
1	
1	
1	
1	
2	
0	
0	
1	
0	
0	
1	
1	
1	
2	
0	
2	
0	
1	
2	
2	
0	
1	
2	
1	
2	
1	
1	
2	
1	
1	
0	
0	
0	
0	
0	
1	
0	
1	
1	
0	
1	
2	
0	
2	
0	
1	
1	
1	
0	
0	
2	
0	
0	
0	
2	
1	
1	
1	
2	
0	
1	
0	
1	
0	
1	
2	
4	
0	
0	
0	
1	
1	
1	
2	
1	
1	
1	
1	
2	
0	
0	
0	
2	
1	
1	
3	
1	
1	
1	
2	
1	
1	
1	
1	
2	
0	
0	
1	
0	
1	
1	
0	
1	
3	
0	
0	
0	
1	
0	
0	
2	
1	
0	
2	
1	
1	
0	
1	
0	
2	
2	
2	
0	
2	
1	
0	
2	
0	
2	
1	
0	
2	
0	
1	
1	
1	
1	
0	
2	
0	
1	
0	
1	
3	
2	
1	
0	
3	
0	
1	
0	
4	
0	
0	
1	
0	
1	
0	
0	
4	
0	
0	
0	
0	
1	
1	
1	
0	
0	
0	
0	
0	
0	
0	
1	
0	
3	
2	
3	
0	
0	
0	
2	
1	
0	
3	
1	
1	
1	
2	
0	
2	
0	
2	
1	
1	
1	
0	
0	
1	
0	
0	
1	
3	
1	
0	
1	
0	
0	
1	
0	
1	
1	
0	
2	
2	
0	
0	
2	
1	
0	
1	
0	
0	
1	
0	
0	
1	
2	
0	
0	
2	
1	
1	
1	
2	
2	
1	
1	
1	
0	
1	
1	
0	
1	
0	
1	
0	
0	
1	
3	
1	
2	
0	
0	
1	
1	
3	
1	
2	
0	
3	
0	
1	
0	
2	
1	
1	
2	
0	
1	
0	
1	
0	
0	
1	
2	
0	
1	
0	
1	
1	
0	
2	
1	
1	
0	
0	
0	
1	
2	
0	
0	
2	
4	
2	
1	
1	
0	
3	
1	
1	
0	
2	
1	
2	
0	
5	
0	
0	
0	
0	
1	
0	
1	
1	
0	
1	
1	
1	
5	
1	
0	
2	
2	
0	
1	
1	
2	
0	
0	
2	
3	
0	
2	
0	
1	
0	
1	
1	
2	
0	
0	
1	
0	
1	
0	
0	
0	
0	
0	
0	
0	
0	
1	
0	
0	
0	
1	
1	
2	
2	
0	
0	
0	
1	
3	
1	
0	
0	
1	
1	
1	
0	
1	
0	
1	
1	
2	
0	
0	
1	
1	
1	
1	
1	
1	
0	
2	
1	
2	
1	
1	
0	
3	
2	
0	
0	
2	
1	
0	
0	
0	
0	
0	
1	
3	
1	
2	
1	
0	
0	
1	
0	
1	
0	
0	
1	
0	
0	
0	
0	
1	
0	
0	
1	
1	
0	
1	
1	
0	
1	
4	
0	
2	
0	
0	
1	
1	
1	
1	
0	
0	
1	
0	
0	
0	
2	
0	
2	
0	
1	
0	
1	
1	
1	
0	
0	
1	
1	
0	
0	
1	
2	
0	
0	
0	
0	
0	
1	
2	
2	
0	
0	
1	
1	
1	
1	
1	
2	
0	
1	
1	
1	
0	
1	
1	
0	
1	
3	
0	
1	
1	
1	
2	
3	
1	
1	
2	
0	
1	
0	
2	
0	
0	
0	
0	
0	
0	
0	
2	
1	
0	
0	
0	
0	
2	
2	
3	
0	
0	
2	
3	
0	
1	
2	
3	
0	
2	
2	
1	
0	
1	
1	
1	
0	
2	
0	
1	
2	
0	
0	
1	
1	
3	
2	
0	
1	
1	
1	
0	
3	
0	
0	
0	
0	
0	
1	
3	
3	
1	
0	
1	
1	
0	
2	
1	
0	
0	
1	
0	
0	
0	
3	
0	
0	
2	
2	
0	
0	
0	
0	
1	
2	
1	
0	
2	
2	
2	
2	
0	
3	
2	
1	
0	
0	
0	
4	
1	
3	
0	
0	
1	
2	
0	
1	
0	
2	
0	
2	
1	
0	
0	
1	
0	
1	
1	
0	
1	
0	
0	
2	
3	
1	
1	
1	
0	
1	
0	
0	
1	
0	
1	
0	
1	
3	
2	
1	
2	
1	
0	
1	
1	
0	
2	
0	
2	
0	
3	
0	
1	
2	
0	
0	
0	
0	
0	
0	
0	
0	
1	
0	
2	
0	
0	
0	
1	
0	
2	
1	
0	
1	
0	
0	
0	
0	
0	
3	
1	
0	
1	
2	
1	
0	
0	
1	
1	
2	
0	
1	
1	
0	
2	
1	
0	
0	
1	
4	
0	
1	
1	
1	
1	
2	
1	
1	
0	
1	
2	
2	
1	
1	
2	
1	
0	
0	
1	
0	
0	
1	
2	
1	
0	
1	
0	
0	
0	
0	
1	
2	
1	
1	
0	
1	
2	
0	
2	
0	
1	
1	
1	
0	
1	
1	
0	
1	
0	
1	
0	
3	
1	
0	
2	
1	
0	
0	
0	
3	
2	
0	
0	
0	
0	
0	
1	
1	
0	
1	
1	
0	
0	
0	
1	
0	
1	
0	
3	
1	
0	
0	
0	
0	
0	
0	
0	
1	
0	
1	
1	
0	
1	
3	
0	
2	
1	
0	
1	
1	
0	
1	
4	
3	
2	
1	
1	
2	
0	
0	
0	
1	
3	
0	
0	
0	
0	
1	
0	
1	
0	
0	
0	
1	
0	
1	
1	
0	
1	
2	
0	
1	
0	
1	
0	
0	
1	
2	
1	
1	
0	
1	
0	
1	
2	
0	
0	
1	
1	
0	
0	
0	
0	
2	
2	
1	
0	
0	
3	
1	
0	
1	
0	
0	
3	
0	
1	
0	
0	
0	
6	
0	
0	
1	
0	
0	
1	
0	
0	
0	
0	
1	
2	
1	
1	
2	
0	
0	
2	
1	
0	
0	
1	
0	
1	
1	
0	
4	
0	
0	
2	
0	
0	
2	
0	
0	
0	
0	
1	
0	
1	
1	
1	
0	
1	
2	
1	
1	
3	
0	
0	
3	
1	
0	
2	
1	
1	
0	
1	
1	
2	
0	
0	
2	
0	
0	
0	
0	
0	
1	
1	
0	
1	
3	
1	
2	
1	
2	
2	
3	
1	
1	
0	
2	
0	
1	
0	
2	
1	
0	
0	
0	
1	
1	
1	
2	
2	
0	
0	
2	
0	
1	
0	
0	
0	
0	
1	
1	
0	
1	
1	
2	
0	
1	
2	
2	
0	
3	
0	
0	
3	
0	
0	
0	
0	
0	
1	
1	
0	
0	
1	
0	
0	
1	
3	
1	
1	
2	
1	
0	
0	
0	
1	
1	
0	
1	
1	
0	
0	
2	
1	
0	
1	
0	
0	
1	
1	
0	
0	
0	
0	
1	
1	
1	
0	
1	
0	
2	
2	
0	
2	
1	
0	
0	
1	
0	
2	
2	
2	
2	
2	
0	
0	
0	
0	
0	
0	
0	
1	
1	
3	
1	
2	
3	
0	
0	
1	
1	
1	
0	
1	
2	
1	
1	
2	
3	
1	
0	
0	
1	
0	
1	
1	
0	
1	
0	
1	
1	
1	
0	
0	
1	
0	
0	
1	
1	
0	
0	
0	
0	
0	
1	
1	
1	
1	
0	
3	
4	
1	
0	
2	
1	
0	
1	
3	
1	
0	
2	
1	
1	
0	
0	
1	
2	
1	
0	
2	
0	
1	
1	
1	
0	
0	
0	
1	
0	
3	
1	
1	
0	
1	
0	
1	
1	
1	
0	
0	
0	
0	
1	
0	
2	
3	
0	
0	
0	
0	
0	
0	
1	
1	
1	
0	
0	
0	
1	
1	
0	
0	
1	
0	
1	
0	
1	
1	
1	
0	
0	
1	
0	
1	
1	
0	
0	
0	
1	
1	
1	
1	
1	
2	
1	
0	
2	
0	
1	
1	
0	
1	
0	
2	
0	
1	
0	
0	
0	
0	
0	
0	
1	
1	
1	
0	
0	
0	
1	
0	
1	
1	
0	
1	
1	
0	
0	
0	
0	
0	
1	
0	
1	
1	
0	
1	
0	
1	
0	
0	
1	
1	
0	
0	
1	
0	
0	
3	
1	
3	
0	
0	
2	
0	
1	
0	
0	
1	
2	
0	
0	
3	
1	
2	
1	
1	
1	
1	
0	
1	
1	
0	
0	
0	
0	
1	
0	
0	
1	
0	
1	
2	
0	
0	
0	
0	
2	
0	
0	
2	
1	
0	
2	
1	
0	
0	
1	
1	
1	
0	
0	
1	
0	
1	
2	
0	
0	
0	
1	
1	
0	
0	
2	
1	
0	
0	
2	
0	
0	
0	
2	
0	
0	
0	
1	
0	
0	
0	
0	
1	
0	
0	
1	
0	
0	
0	
2	
0	
2	
1	
1	
1	
1	
0	
0	
3	
2	
0	
0	
1	
2	
0	
0	
2	
0	
2	
1	
0	
0	
1	
2	
1	
2	
1	
0	
1	
2	
1	
1	
0	
1	
0	
0	
0	
0	
0	
1	
0	
0	
0	
1	
0	
2	
0	
0	
1	
0	
0	
0	
0	
1	
1	
1	
0	
1	
1	
0	
1	
0	
1	
0	
0	
0	
0	
0	
0	
0	
1	
1	
1	
0	
0	
0	
1	
0	
1	
0	
0	
0	
0	
0	
2	
0	
0	
0	
1	
1	
0	
2	
0	
2	
0	
0	
0	
2	
0	
1	
2	
0	
0	
1	
0	
0	
2	
2	
0	
0	
2	
1	
1	
0	
0	
0	
0	
0	
1	
0	
0	
1	
1	
1	
2	
0	
3	
2	
0	
1	
0	
0	
2	
1	
2	
1	
3	
0	
0	
2	
0	
0	
0	
0	
2	
0	
1	
0	
0	
0	
1	
0	
0	
0	
1	
1	
1	
0	
0	
1	
0	
2	
2	
0	
1	
1	
0	
0	
0	
0	
0	
1	
1	
4	
1	
0	
1	
0	
0	
0	
0	
1	
0	
1	
1	
0	
1	
1	
2	
1	
0	
3	
1	
0	
0	
0	
0	
0	
1	
1	
0	
2	
2	
0	
0	
1	
1	
3	
1	
0	
3	
1	
1	
0	
3	
0	
2	
0	
0	
0	
1	
1	
0	
0	
1	
2	
0	
1	
0	
0	
0	
3	
1	
1	
1	
0	
1	
1	
0	
0	
2	
1	
0	
2	
0	
0	
0	
0	
1	
1	
0	
0	
0	
1	
1	
0	
1	
1	
0	
1	
1	
0	
0	
1	
1	
0	
1	
1	
1	
0	
0	
0	
0	
0	
1	
2	
2	
1	
0	
1	
2	
0	
2	
3	
0	
0	
2	
2	
0	
1	
0	
1	
1	
2	
2	
1	
0	
0	
1	
0	
1	
1	
1	
0	
0	
0	
0	
1	
0	
0	
0	
0	
1	
1	
0	
0	
0	
3	
0	
0	
0	
0	
0	
0	
2	
0	
0	
0	
1	
1	
2	
3	
1	
0	
1	
1	
1	
1	
0	
0	
2	
1	
0	
1	
1	
0	
0	
0	
0	
0	
1	
1	
1	
1	
2	
0	
0	
0	
1	
0	
1	
0	
0	
1	
0	
0	
0	
1	
1	
1	
1	
0	
1	
1	
0	
0	
1	
1	
0	
1	
1	
0	
1	
0	
1	
1	
0	
2	
0	
1	
0	
0	
1	
0	
1	
1	
0	
2	
2	
1	
0	
2	
0	
0	
0	
0	
0	
3	
0	
1	
0	
0	
1	
0	
0	
0	
0	
0	
0	
1	
0	
1	
0	
2	
0	
1	
1	
0	
0	
1	
1	
0	
0	
1	
1	
0	
0	
1	
1	
1	
0	
0	
0	
0	
0	
1	
1	
1	
2	
0	
1	
0	
1	
0	
0	
0	
1	
3	
0	
0	
1	
0	
0	
1	
0	
2	
2	
1	
0	
0	
2	
0	
0	
0	
0	
0	
2	
1	
3	
2	
0	
3	
0	
0	
0	
0	
0	
3	
0	
0	
3	
1	
1	
1	
1	
0	
0	
0	
0	
1	
1	
1	
1	
0	
0	
1	
1	
1	
0	
0	
3	
1	
0	
0	
0	
0	
0	
1	
0	
1	
0	
0	
0	
2	
0	
0	
0	
1	
1	
1	
0	
1	
0	
1	
2	
0	
1	
0	
1	
2	
0	
0	
1	
0	
0	
1	
1	
2	
0	
1	
0	
1	
1	
1	
0	
0	
1	
2	
0	
0	
3	
1	
2	
0	
0	
1	
0	
1	
1	
0	
1	
0	
0	
0	
0	
1	
0	
1	
0	
1	
1	
0	
2	
0	
0	
2	
0	
1	
0	
0	
0	
3	
1	
0	
0	
1	
1	
0	
0	
0	
3	
1	
0	
0	
2	
0	
2	
0	
1	
0	
0	
0	
0	
0	
1	
1	
2	
0	
1	
1	
0	
3	
1	
1	
0	
0	
2	
1	
0	
0	
0	
2	
0	
0	
0	
1	
0	
0	
0	
0	
0	
0	
1	
0	
0	
0	
3	
1	
1	
0	
0	
2	
1	
2	
0	
0	
2	
0	
1	
0	
0	
0	
1	
2	
1	
0	
1	
0	
1	
1	
1	
2	
2	
1	
1	
0	
0	
0	
2	
0	
2	
1	
1	
1	
1	
2	
1	
1	
0	
0	
0	
0	
0	
0	
1	
1	
0	
1	
0	
0	
2	
0	
0	
0	
0	
1	
1	
2	
0	
0	
2	
1	
1	
0	
1	
1	
1	
0	
1	
0	
1	
0	
0	
0	
1	
0	
0	
1	
1	
0	
0	
0	
1	
2	
1	
0	
1	
0	
0	
0	
0	
0	
0	
1	
0	
0	
0	
0	
0	
0	
1	
2	
1	
0	
0	
0	
0	
1	
1	
0	
0	
0	
0	
1	
1	
1	
0	
0	
0	
2	
0	
0	
1	
0	
0	
2	
0	
0	
1	
1	
0	
0	
2	
0	
0	
0	
0	
1	
0	
0	
0	
2	
0	
0	
0	
0	
0	
0	
0	
0	
1	
0	
0	
1	
0	
0	
0	
1	
1	
0	
1	
2	
2	
0	
1	
2	
0	
0	
1	
0	
1	
1	
1	
0	
0	
1	
0	
3	
1	
0	
1	
0	
2	
0	
0	
1	
2	
0	
0	
2	
1	
0	
0	
0	
0	
0	
0	
0	
0	
0	
1	
1	
1	
0	
0	
1	
0	
0	
0	
1	
0	
0	
0	
1	
1	
1	
0	
0	
0	
2	
0	
0	
0	
0	
2	
0	
1	
2	
1	
1	
0	
1	
1	
0	
1	
0	
1	
2	
0	
1	
1	
0	
0	
0	
1	
2	
1	
2	
0	
0	
0	
1	
1	
0	
2	
0	
1	
1	
0	
0	
1	
0	
0	
1	
0	
0	
0	
1	
0	
1	
0	
0	
0	
0	
0	
0	
0	
1	
0	
0	
1	
0	
2	
0	
0	
0	
1	
0	
1	
0	
1	
0	
0	
0	
0	
0	
1	
0	
1	
2	
1	
1	
1	
0	
1	
0	
1	
0	
0	
0	
1	
0	
1	
1	
0	
1	
0	
0	
1	
1	
1	
1	
0	
0	
1	
0	
1	
1	
0	
0	
0	
0	
1	
1	
1	
1	
1	
1	
2	
0	
0	
2	
1	
0	
0	
0	
0	
0	
1	
0	
0	
1	
0	
1	
0	
0	
0	
2	
1	
1	
0	
0	
0	
0	
0	
2	
0	
2	
0	
2	
0	
0	
0	
0	
0	
0	
1	
0	
1	
0	
0	
0	
0	
0	
1	
1	
1	
0	
2	
0	
0	
0	
0	
2	
0	
1	
1	
0	
1	
1	
0	
0	
0	
2	
1	
0	
0	
0	
0	
0	
1	
2	
0	
0	
0	
1	
0	
0	
2	
1	
1	
1	
0	
0	
3	
1	
0	
0	
0	
0	
2	
2	
1	
0	
1	
2	
1	
0	
0	
1	
1	
2	
2	
2	
0	
0	
2	
1	
1	
0	
1	
3	
0	
1	
0	
0	
2	
1	
1	
3	
0	
1	
0	
1	
1	
0	
0	
0	
3	
1	
0	
0	
1	
0	
1	
0	
0	
0	
0	
0	
0	
1	
0	
0	
0	
1	
0	
1	
0	
0	
1	
0	
1	
0	
0	
1	
0	
1	
1	
0	
0	
0	
1	
0	
0	
2	
1	
0	
1	
0	
1	
0	
0	
0	
0	
0	
0	
1	
1	
0	
0	
1	
1	
1	
1	
2	
0	
1	
1	
0	
0	
1	
0	
0	
2	
0	
0	
0	
0	
0	
1	
0	
1	
1	
0	
0	
1	
1	
0	
1	
1	
0	
1	
0	
0	
0	
0	
0	
0	
1	
0	
1	
1	
1	
0	
0	
1	
1	
0	
0	
0	
0	
1	
0	
1	
0	
0	
1	
0	
2	
0	
1	
0	
0	
0	
1	
0	
1	
1	
1	
0	
0	
1	
1	
0	
2	
0	
0	
1	
0	
0	
0	
0	
0	
0	
0	
2	
0	
1	
0	
1	
1	
0	
0	
1	
1	
0	
1	
1	
1	
0	
1	
0	
1	
0	
2	
0	
0	
1	
0	
0	
1	
1	
0	
1	
1	
1	
0	
1	
0	
0	
0	
0	
1	
0	
2	
0	
0	
1	
2	
0	
1	
0	
0	
0	
1	
0	
0	
0	
0	
0	
0	
0	
0	
0	
0	
1	
0	
0	
1	
1	
0	
0	
0	
0	
0	
0	
0	
0	
0	
0	
0	
0	
0	
1	
0	
0	
0	
1	
2	
0	
0	
5	
1	
0	
2	
2	
0	
0	
1	
0	
0	
1	
0	
1	
2	
2	
1	
2	
1	
1	
0	
1	
0	
0	
0	
0	
0	
1	
0	
0	
0	
1	
0	
3	
0	
1	
1	
0	
1	
0	
0	
0	
0	
0	
1	
0	
2	
0	
2	
1	
0	
2	
1	
0	
2	
0	
1	
0	
0	
0	
0	
0	
0	
0	
0	
0	
0	
0	
0	
0	
1	
0	
0	
1	
0	
1	
1	
0	
0	
0	
0	
2	
0	
1	
2	
1	
1	
1	
1	
1	
1	
0	
1	
0	
1	
1	
0	
0	
1	
4	
0	
0	
1	
0	
1	
1	
0	
0	
0	
1	
1	
0	
1	
0	
0	
1	
0	
0	
0	
0	
1	
1	
0	
0	
0	
0	
1	
0	
2	
1	
2	
0	
0	
0	
0	
0	
1	
1	
0	
0	
0	
0	
1	
0	
1	
0	
4	
1	
1	
1	
1	
0	
0	
0	
3	
0	
0	
2	
0	
1	
0	
0	
0	
0	
0	
0	
0	
0	
0	
0	
0	
1	
1	
2	
2	
1	
0	
1	
0	
0	
0	
1	
2	
0	
0	
0	
1	
1	
2	
0	
1	
1	
0	
0	
1	
0	
0	
0	
0	
0	
0	
0	
0	
0	
0	
1	
0	
0	
0	
0	
0	
0	
1	
1	
0	
2	
1	
0	
0	
0	
0	
0	
0	
0	
2	
1	
0	
1	
0	
0	
1	
0	
1	
0	
1	
0	
0	
0	
0	
1	
0	
1	
1	
0	
0	
1	
0	
0	
0	
0	
1	
0	
0	
0	
2	
0	
0	
1	
1	
0	
0	
2	
3	
1	
0	
0	
0	
0	
1	
1	
1	
0	
3	
0	
1	
1	
0	
1	
0	
1	
1	
0	
1	
0	
0	
0	
0	
1	
1	
3	
0	
0	
0	
2	
0	
1	
0	
0	
1	
1	
1	
0	
0	
0	
0	
0	
2	
0	
0	
1	
0	
1	
2	
0	
0	
2	
0	
0	
1	
1	
2	
2	
0	
0	
1	
0	
1	
0	
1	
0	
2	
0	
1	
1	
0	
0	
0	
0	
0	
0	
1	
0	
0	
0	
0	
0	
0	
0	
2	
1	
2	
0	
0	
0	
0	
1	
0	
1	
0	
0	
1	
0	
1	
3	
1	
2	
0	
0	
0	
2	
0	
0	
0	
1	
1	
1	
0	
1	
0	
1	
0	
0	
0	
0	
1	
0	
1	
1	
1	
0	
0	
0	
0	
0	
2	
0	
0	
0	
0	
0	
1	
0	
0	
1	
0	
0	
1	
1	
1	
1	
0	
0	
1	
0	
0	
0	
1	
0	
0	
0	
2	
1	
0	
0	
0	
0	
0	
0	
0	
0	
0	
0	
0	
1	
1	
1	
0	
2	
2	
1	
0	
1	
0	
0	
1	
0	
0	
1	
0	
1	
1	
0	
0	
0	
2	
0	
2	
0	
0	
1	
1	
0	
1	
0	
1	
0	
0	
0	
0	
2	
0	
0	
1	
3	
0	
0	
0	
1	
0	
0	
1	
0	
0	
0	
0	
1	
0	
0	
1	
1	
1	
0	
1	
0	
0	
0	
1	
1	
1	
0	
0	
0	
0	
2	
1	
0	
0	
0	
0	
0	
0	
1	
1	
1	
0	
1	
0	
0	
0	
0	
0	
0	
0	
0	
1	
1	
0	
1	
1	
1	
2	
1	
1	
0	
1	
1	
1	
1	
0	
1	
1	
0	
0	
0	
0	
0	
2	
1	
1	
0	
0	
2	
1	
0	
0	
2	
1	
1	
0	
0	
1	
0	
1	
0	
0	
0	
1	
1	
0	
1	
0	
0	
0	
0	
0	
0	
0	
0	
0	
1	
0	
2	
0	
0	
0	
1	
1	
0	
1	
0	
1	
1	
0	
2	
1	
0	
1	
1	
1	
0	
0	
0	
1	
0	
0	
0	
0	
1	
0	
2	
1	
0	
0	
0	
0	
0	
2	
1	
2	
0	
0	
0	
1	
1	
2	
0	
0	
0	
0	
0	
0	
0	
1	
1	
0	
0	
0	
0	
0	
0	
1	
0	
0	
0	
0	
0	
0	
0	
0	
1	
0	
0	
0	
3	
0	
0	
2	
0	
1	
1	
0	
0	
0	
0	
1	
0	
0	
0	
0	
1	
0	
1	
0	
2	
1	
0	
0	
0	
2	
1	
1	
0	
0	
0	
0	
0	
0	
0	
0	
0	
0	
2	
0	
1	
1	
0	
0	
1	
1	
0	
0	
0	
0	
0	
0	
0	
2	
1	
0	
2	
0	
0	
1	
0	
2	
1	
0	
0	
1	
0	
0	
0	
1	
1	
1	
1	
0	
0	
1	
0	
1	
0	
0	
0	
0	
0	
1	
0	
0	
0	
1	
0	
0	
1	
1	
0	
0	
0	
1	
1	
1	
0	
0	
1	
0	
1	
0	
0	
0	
1	
1	
0	
0	
0	
0	
0	
1	
0	
1	
1	
0	
0	
2	
0	
0	
1	
1	
0	
0	
1	
0	
1	
0	
0	
1	
0	
1	
1	
0	
1	
0	
0	
1	
0	
2	
0	
0	
0	
0	
0	
0	
0	
0	
1	
0	
0	
0	
0	
1	
0	
0	
0	
1	
0	
0	
0	
1	
0	
1	
0	
0	
0	
0	
0	
0	
0	
0	
0	
1	
1	
0	
1	
0	
0	
0	
0	
1	
1	
2	
0	
0	
1	
0	
0	
2	
1	
2	
0	
0	
1	
1	
1	
0	
0	
0	
0	
1	
0	
0	
0	
0	
3	
1	
1	
0	
0	
0	
0	
1	
0	
1	
0	
0	
1	
0	
0	
0	
0	
0	
0	
0	
0	
0	
0	
1	
1	
0	
1	
0	
1	
0	
0	
0	
0	
1	
0	
0	
0	
1	
0	
2	
0	
0	
0	
0	
1	
1	
0	
0	
2	
2	
1	
0	
0	
2	
0	
0	
0	
1	
0	
2	
3	
0	
0	
0	
0	
0	
0	
0	
0	
1	
0	
0	
0	
0	
0	
0	
2	
0	
0	
2	
0	
0	
0	
0	
1	
2	
0	
1	
0	
0	
0	
1	
0	
1	
0	
1	
0	
1	
0	
0	
1	
1	
2	
2	
1	
0	
0	
1	
0	
0	
2	
0	
0	
0	
0	
0	
0	
0	
0	
0	
0	
1	
0	
1	
0	
0	
1	
1	
0	
1	
1	
1	
1	
3	
1	
0	
1	
0	
0	
0	
0	
0	
0	
1	
0	
1	
0	
0	
1	
0	
0	
0	
0	
0	
0	
1	
1	
2	
0	
0	
1	
1	
1	
1	
0	
1	
1	
1	
0	
1	
0	
3	
0	
0	
0	
1	
2	
0	
1	
1	
1	
0	
0	
0	
0	
0	
0	
0	
1	
0	
0	
0	
0	
0	
1	
1	
0	
0	
0	
0	
0	
0	
0	
1	
0	
2	
2	
0	
1	
0	
1	
1	
0	
1	
1	
0	
1	
2	
1	
0	
0	
2	
0	
2	
1	
0	
0	
0	
1	
1	
0	
1	
0	
0	
0	
0	
2	
1	
0	
2	
0	
